# Wavenumber   Flux
#       [um]   [erg/s/cm]
    28.00000   2.87181220e+03
    27.92182   2.88528123e+03
    27.84407   2.89880128e+03
    27.76676   2.91233133e+03
    27.68987   2.92588140e+03
    27.61341   2.93938936e+03
    27.53737   2.95297845e+03
    27.46175   2.96658708e+03
    27.38654   2.98020580e+03
    27.31174   2.99374498e+03
    27.23735   3.00750600e+03
    27.16337   3.02119335e+03
    27.08978   3.03487147e+03
    27.01660   3.04855487e+03
    26.94380   3.06222971e+03
    26.87140   3.07598817e+03
    26.79939   3.08977162e+03
    26.72776   3.10356314e+03
    26.65651   3.11733668e+03
    26.58564   3.13115287e+03
    26.51515   3.14493424e+03
    26.44503   3.15879975e+03
    26.37528   3.17266081e+03
    26.30590   3.18614652e+03
    26.23688   3.20040703e+03
    26.16822   3.21430026e+03
    26.09993   3.22820306e+03
    26.03198   3.24209032e+03
    25.96439   3.25588124e+03
    25.89715   3.26991662e+03
    25.83026   3.28387512e+03
    25.76371   3.29785242e+03
    25.69750   3.31189728e+03
    25.63164   3.32587360e+03
    25.56611   3.33990824e+03
    25.50091   3.35396904e+03
    25.43605   3.36778819e+03
    25.37151   3.38202457e+03
    25.30730   3.39622619e+03
    25.24342   3.41031994e+03
    25.17986   3.42440147e+03
    25.11661   3.43854775e+03
    25.05369   3.45267419e+03
    24.99107   3.46674754e+03
    24.92877   3.48084687e+03
    24.86679   3.49513287e+03
    24.80510   3.50928751e+03
    24.74373   3.52346406e+03
    24.68265   3.53764845e+03
    24.62188   3.55182064e+03
    24.56140   3.56605182e+03
    24.50123   3.57987816e+03
    24.44134   3.59442762e+03
    24.38175   3.60869898e+03
    24.32245   3.62307076e+03
    24.26343   3.63730171e+03
    24.20470   3.65180838e+03
    24.14626   3.66598763e+03
    24.08809   3.68028177e+03
    24.03021   3.69473942e+03
    23.97260   3.70867825e+03
    23.91527   3.72299099e+03
    23.85821   3.73745471e+03
    23.80143   3.75106415e+03
    23.74491   3.76539945e+03
    23.68866   3.78047687e+03
    23.63268   3.79480223e+03
    23.57696   3.80934639e+03
    23.52151   3.82406742e+03
    23.46631   3.83847400e+03
    23.41137   3.85282081e+03
    23.35669   3.86739404e+03
    23.30226   3.88172335e+03
    23.24809   3.89631211e+03
    23.19417   3.91055353e+03
    23.14050   3.92442488e+03
    23.08707   3.93904881e+03
    23.03389   3.95421632e+03
    22.98096   3.96782425e+03
    22.92827   3.98179907e+03
    22.87582   3.99692764e+03
    22.82361   4.01161449e+03
    22.77163   4.02519103e+03
    22.71990   4.03998265e+03
    22.66839   4.05477908e+03
    22.61712   4.06946231e+03
    22.56609   4.08357994e+03
    22.51528   4.09934939e+03
    22.46470   4.11333685e+03
    22.41435   4.12829338e+03
    22.36422   4.14348909e+03
    22.31431   4.15746662e+03
    22.26463   4.17190122e+03
    22.21517   4.18727153e+03
    22.16593   4.20162019e+03
    22.11690   4.21551296e+03
    22.06810   4.22906623e+03
    22.01950   4.24014336e+03
    21.97112   4.26046384e+03
    21.92296   4.27132703e+03
    21.87500   4.28455546e+03
    21.82725   4.30173379e+03
    21.77971   4.31559254e+03
    21.73238   4.32927766e+03
    21.68525   4.34544762e+03
    21.63833   4.36087278e+03
    21.59161   4.37507411e+03
    21.54509   4.39091905e+03
    21.49877   4.40611904e+03
    21.45265   4.41856511e+03
    21.40673   4.43385007e+03
    21.36100   4.44976924e+03
    21.31547   4.46414028e+03
    21.27013   4.47444793e+03
    21.22498   4.47311532e+03
    21.18003   4.50751925e+03
    21.13527   4.52120113e+03
    21.09069   4.53639081e+03
    21.04630   4.54968900e+03
    21.00210   4.56408676e+03
    20.95808   4.58099913e+03
    20.91425   4.59568481e+03
    20.87060   4.60740984e+03
    20.82713   4.60685486e+03
    20.78385   4.62427192e+03
    20.74074   4.64611245e+03
    20.69781   4.65500160e+03
    20.65506   4.67045081e+03
    20.61249   4.69011861e+03
    20.57009   4.70815250e+03
    20.52786   4.71828709e+03
    20.48581   4.73571877e+03
    20.44393   4.74949514e+03
    20.40222   4.76788019e+03
    20.36067   4.77860696e+03
    20.31930   4.79030783e+03
    20.27810   4.80515641e+03
    20.23706   4.82237330e+03
    20.19619   4.83382995e+03
    20.15549   4.85027653e+03
    20.11494   4.85993187e+03
    20.07456   4.87628072e+03
    20.03434   4.88954674e+03
    19.99429   4.89887492e+03
    19.95439   4.92041377e+03
    19.91465   4.92988141e+03
    19.87507   4.94072529e+03
    19.83565   4.96587320e+03
    19.79638   4.96514618e+03
    19.75727   4.98071881e+03
    19.71831   4.98066716e+03
    19.67951   4.96208239e+03
    19.64085   4.96516450e+03
    19.60235   5.00150758e+03
    19.56400   5.00794990e+03
    19.52580   5.02825501e+03
    19.48775   5.05798844e+03
    19.44985   5.07034878e+03
    19.41209   5.07973202e+03
    19.37448   5.10193848e+03
    19.33702   5.11182211e+03
    19.29970   5.11262757e+03
    19.26252   5.14503426e+03
    19.22549   5.14680387e+03
    19.18860   5.14750178e+03
    19.15185   5.18575269e+03
    19.11524   5.16412558e+03
    19.07877   5.18582928e+03
    19.04244   5.20735031e+03
    19.00624   5.20252301e+03
    18.97019   5.20707814e+03
    18.93427   5.20320439e+03
    18.89849   5.21473631e+03
    18.86284   5.23219723e+03
    18.82733   5.24933090e+03
    18.79195   5.27506219e+03
    18.75670   5.25562663e+03
    18.72158   5.27964955e+03
    18.68660   5.29488916e+03
    18.65175   5.27211274e+03
    18.61702   5.31314542e+03
    18.58243   5.26579967e+03
    18.54796   5.30570683e+03
    18.51362   5.34433243e+03
    18.47941   5.31961144e+03
    18.44532   5.28692096e+03
    18.41136   5.22502633e+03
    18.37753   5.27109490e+03
    18.34382   5.16502109e+03
    18.31023   5.19296989e+03
    18.27676   5.21627159e+03
    18.24342   5.26547125e+03
    18.21020   5.31620647e+03
    18.17710   5.31709943e+03
    18.14412   5.35588500e+03
    18.11125   5.40342589e+03
    18.07851   5.37166480e+03
    18.04589   5.26835539e+03
    18.01338   5.41931754e+03
    17.98099   5.27959738e+03
    17.94872   5.17342637e+03
    17.91656   5.33187192e+03
    17.88452   5.35330295e+03
    17.85259   5.35570802e+03
    17.82077   5.40259986e+03
    17.78907   5.39330984e+03
    17.75748   5.30531577e+03
    17.72601   5.40284197e+03
    17.69464   5.29496905e+03
    17.66339   5.32583598e+03
    17.63224   5.33316766e+03
    17.60121   4.99156638e+03
    17.57028   5.20036058e+03
    17.53946   5.43463035e+03
    17.50875   5.26842489e+03
    17.47815   5.51756203e+03
    17.44766   5.34959098e+03
    17.41727   5.33257661e+03
    17.38698   5.43303462e+03
    17.35681   5.32844989e+03
    17.32673   5.45137874e+03
    17.29676   5.10094230e+03
    17.26690   5.31991984e+03
    17.23713   5.14897637e+03
    17.20747   4.72622659e+03
    17.17791   5.16256220e+03
    17.14846   5.46540815e+03
    17.11910   5.29266238e+03
    17.08984   5.55470290e+03
    17.06069   5.30539083e+03
    17.03163   5.25781632e+03
    17.00267   5.50734312e+03
    16.97381   5.26702348e+03
    16.94505   5.22995612e+03
    16.91638   5.51089920e+03
    16.88782   5.11367757e+03
    16.85934   5.29880439e+03
    16.83097   5.06881901e+03
    16.80269   5.00526894e+03
    16.77450   4.93056419e+03
    16.74641   4.49985192e+03
    16.71841   5.25560665e+03
    16.69051   5.59068839e+03
    16.66270   5.33278414e+03
    16.63498   5.26818802e+03
    16.60735   5.60440335e+03
    16.57982   5.24523264e+03
    16.55238   5.49409298e+03
    16.52502   5.31547841e+03
    16.49776   5.18195812e+03
    16.47059   5.46236254e+03
    16.44350   5.27873557e+03
    16.41651   5.16401397e+03
    16.38960   5.27795906e+03
    16.36279   5.20087771e+03
    16.33606   5.16659699e+03
    16.30941   5.18919800e+03
    16.28286   5.07905203e+03
    16.25639   4.72452117e+03
    16.23000   4.62739487e+03
    16.20370   4.35144216e+03
    16.17749   4.48155436e+03
    16.15136   5.16705840e+03
    16.12532   5.53474073e+03
    16.09936   5.13229785e+03
    16.07348   5.07355082e+03
    16.04768   5.26787768e+03
    16.02197   5.17432831e+03
    15.99634   5.01104503e+03
    15.97080   5.13291680e+03
    15.94533   5.21240973e+03
    15.91995   4.97635913e+03
    15.89464   5.06193086e+03
    15.86942   5.13818218e+03
    15.84427   4.96520714e+03
    15.81921   4.96726849e+03
    15.79422   4.99164788e+03
    15.76932   4.89341444e+03
    15.74449   4.80682576e+03
    15.71974   5.17290411e+03
    15.69507   4.84350960e+03
    15.67047   4.84684629e+03
    15.64595   5.26138429e+03
    15.62151   4.79501184e+03
    15.59715   4.77107730e+03
    15.57286   5.31575503e+03
    15.54865   4.80500175e+03
    15.52451   4.80993869e+03
    15.50044   5.33336745e+03
    15.47645   4.79733196e+03
    15.45254   4.50858889e+03
    15.42870   4.74486415e+03
    15.40493   4.43418245e+03
    15.38123   4.64535753e+03
    15.35761   5.15119543e+03
    15.33406   4.70788712e+03
    15.31059   4.59992287e+03
    15.28718   5.17796320e+03
    15.26385   4.80138495e+03
    15.24058   4.71635395e+03
    15.21739   5.20511011e+03
    15.19427   4.92042101e+03
    15.17122   5.00833700e+03
    15.14824   5.46660509e+03
    15.12532   5.20595700e+03
    15.10248   5.48540461e+03
    15.07971   5.30438459e+03
    15.05700   5.46220383e+03
    15.03436   5.50364990e+03
    15.01179   5.80657326e+03
    14.98929   3.78235217e+03
    14.96686   2.72962868e+03
    14.94449   3.37431781e+03
    14.92219   4.10870417e+03
    14.89996   4.47652273e+03
    14.87779   4.99868951e+03
    14.85569   5.00433869e+03
    14.83365   5.12894158e+03
    14.81168   5.40782907e+03
    14.78977   5.08913092e+03
    14.76793   5.13258035e+03
    14.74616   5.51323578e+03
    14.72444   5.00068290e+03
    14.70279   5.48246715e+03
    14.68121   5.03023270e+03
    14.65969   4.96662163e+03
    14.63823   5.44975047e+03
    14.61683   4.74412589e+03
    14.59550   5.01384046e+03
    14.57422   5.43551259e+03
    14.55301   4.99933894e+03
    14.53187   5.77930806e+03
    14.51078   4.65564758e+03
    14.48975   4.86734525e+03
    14.46879   5.35226044e+03
    14.44788   5.01960487e+03
    14.42704   5.22265282e+03
    14.40626   5.47734330e+03
    14.38553   5.14236108e+03
    14.36487   5.76137436e+03
    14.34426   5.19597902e+03
    14.32372   5.42146388e+03
    14.30323   5.57815946e+03
    14.28280   5.34555014e+03
    14.26243   5.87980332e+03
    14.24212   5.32431944e+03
    14.22186   5.57825393e+03
    14.20166   5.66384367e+03
    14.18152   5.47971810e+03
    14.16144   5.58663782e+03
    14.14141   5.76135114e+03
    14.12144   5.73704574e+03
    14.10153   5.94589796e+03
    14.08167   5.66581742e+03
    14.06187   5.76999328e+03
    14.04213   6.16099118e+03
    14.02244   5.79729807e+03
    14.00280   6.22638373e+03
    13.98322   5.80799293e+03
    13.96369   5.90153926e+03
    13.94422   5.90037930e+03
    13.92481   5.58159825e+03
    13.90544   5.44817167e+03
    13.88613   4.97518395e+03
    13.86688   5.86548038e+03
    13.84768   6.33343410e+03
    13.82853   6.26615853e+03
    13.80943   6.42644721e+03
    13.79039   6.38755198e+03
    13.77139   6.58182626e+03
    13.75246   6.48948282e+03
    13.73357   6.61607249e+03
    13.71473   6.74636296e+03
    13.69595   6.46797349e+03
    13.67722   6.70887049e+03
    13.65854   6.77071284e+03
    13.63991   6.61412857e+03
    13.62133   6.83224035e+03
    13.60280   6.60519229e+03
    13.58432   6.61779580e+03
    13.56589   6.74249912e+03
    13.54751   6.43552566e+03
    13.52918   6.58377167e+03
    13.51091   6.42519650e+03
    13.49268   5.93759848e+03
    13.47449   6.67076169e+03
    13.45636   7.42595346e+03
    13.43828   7.10810644e+03
    13.42025   6.92619765e+03
    13.40226   7.61282731e+03
    13.38432   7.15622641e+03
    13.36643   7.19710928e+03
    13.34859   7.54694083e+03
    13.33079   7.22910501e+03
    13.31305   7.21702294e+03
    13.29535   7.45402057e+03
    13.27769   7.04779108e+03
    13.26009   6.97794446e+03
    13.24253   7.28423266e+03
    13.22501   6.98618921e+03
    13.20755   6.78725368e+03
    13.19013   7.99217402e+03
    13.17275   7.52635999e+03
    13.15542   7.47897916e+03
    13.13814   8.14838758e+03
    13.12090   7.62765995e+03
    13.10371   7.62420905e+03
    13.08656   8.26925115e+03
    13.06945   7.57292416e+03
    13.05240   7.56388031e+03
    13.03538   7.86414556e+03
    13.01841   7.73430003e+03
    13.00149   7.64719692e+03
    12.98460   7.62724897e+03
    12.96777   8.20042001e+03
    12.95097   8.09254577e+03
    12.93422   8.10050611e+03
    12.91751   8.33766878e+03
    12.90085   8.20325174e+03
    12.88423   8.17815053e+03
    12.86765   8.27608364e+03
    12.85111   8.13185230e+03
    12.83462   8.39302675e+03
    12.81817   8.34116577e+03
    12.80176   8.17790536e+03
    12.78539   8.52510149e+03
    12.76906   8.58542958e+03
    12.75278   8.62030857e+03
    12.73654   8.68870900e+03
    12.72033   8.69158721e+03
    12.70417   8.60908429e+03
    12.68806   8.76426138e+03
    12.67198   8.86085503e+03
    12.65594   8.71326229e+03
    12.63994   8.28631786e+03
    12.62399   8.27862177e+03
    12.60807   8.67257471e+03
    12.59219   8.82934614e+03
    12.57636   8.92751093e+03
    12.56056   9.03347554e+03
    12.54480   9.01371603e+03
    12.52909   8.99620197e+03
    12.51341   9.14363096e+03
    12.49777   9.19132694e+03
    12.48217   9.16508407e+03
    12.46661   9.30103093e+03
    12.45109   9.26862593e+03
    12.43560   9.31732843e+03
    12.42016   9.28438481e+03
    12.40475   9.40056002e+03
    12.38938   9.38199767e+03
    12.37405   9.38293527e+03
    12.35876   9.42310344e+03
    12.34350   9.50034987e+03
    12.32828   9.49070216e+03
    12.31310   9.46780635e+03
    12.29796   9.58311604e+03
    12.28286   9.50175408e+03
    12.26779   9.58362980e+03
    12.25276   9.67031978e+03
    12.23776   9.61571683e+03
    12.22280   9.69342174e+03
    12.20788   9.68542628e+03
    12.19300   9.70037133e+03
    12.17815   9.78162742e+03
    12.16334   9.74373961e+03
    12.14856   9.76168127e+03
    12.13382   9.82691348e+03
    12.11911   9.78071364e+03
    12.10444   9.77882373e+03
    12.08981   9.86364272e+03
    12.07521   9.55730306e+03
    12.06065   9.79365033e+03
    12.04612   9.82684599e+03
    12.03163   9.86846781e+03
    12.01717   9.96118970e+03
    12.00274   9.94596883e+03
    11.98835   9.98373898e+03
    11.97400   1.00210738e+04
    11.95968   1.00284074e+04
    11.94539   1.00548401e+04
    11.93114   1.00732050e+04
    11.91692   1.00822613e+04
    11.90274   1.01117799e+04
    11.88859   1.01191063e+04
    11.87447   1.01282719e+04
    11.86039   1.01846548e+04
    11.84634   1.01503287e+04
    11.83232   1.02048356e+04
    11.81834   1.02075578e+04
    11.80438   1.02128756e+04
    11.79047   1.02333604e+04
    11.77658   1.02386542e+04
    11.76273   1.02843092e+04
    11.74891   1.02659852e+04
    11.73512   1.03075351e+04
    11.72137   1.03027178e+04
    11.70764   1.03015444e+04
    11.69395   1.03142933e+04
    11.68029   1.03840288e+04
    11.66667   1.02613895e+04
    11.65307   1.03240394e+04
    11.63951   1.03553233e+04
    11.62598   1.04229199e+04
    11.61248   1.04109702e+04
    11.59901   1.04057074e+04
    11.58557   1.04009292e+04
    11.57216   1.04106397e+04
    11.55878   1.04556381e+04
    11.54544   1.05235557e+04
    11.53213   1.04780739e+04
    11.51884   1.05510993e+04
    11.50559   1.05039514e+04
    11.49237   1.05659458e+04
    11.47917   1.05273306e+04
    11.46601   1.05984524e+04
    11.45288   1.05757468e+04
    11.43978   1.05865829e+04
    11.42671   1.06550313e+04
    11.41366   1.05742918e+04
    11.40065   1.06765338e+04
    11.38767   1.06359877e+04
    11.37472   1.06591183e+04
    11.36179   1.06634279e+04
    11.34890   1.06958861e+04
    11.33603   1.06410315e+04
    11.32320   1.07045055e+04
    11.31039   1.06898806e+04
    11.29761   1.07665428e+04
    11.28486   1.07240518e+04
    11.27214   1.07608789e+04
    11.25945   1.08013699e+04
    11.24679   1.07552595e+04
    11.23415   1.08316848e+04
    11.22155   1.07872320e+04
    11.20897   1.08647987e+04
    11.19642   1.08230398e+04
    11.18390   1.08598125e+04
    11.17140   1.08577417e+04
    11.15894   1.08861820e+04
    11.14650   1.08880847e+04
    11.13409   1.08853297e+04
    11.12170   1.09176777e+04
    11.10935   1.09731598e+04
    11.09702   1.08984491e+04
    11.08472   1.09794550e+04
    11.07245   1.09315650e+04
    11.06020   1.10046380e+04
    11.04798   1.09510514e+04
    11.03579   1.10173872e+04
    11.02362   1.10730180e+04
    11.01148   1.09443622e+04
    10.99937   1.10521652e+04
    10.98729   1.10492546e+04
    10.97523   1.11015993e+04
    10.96319   1.10584398e+04
    10.95119   1.11206642e+04
    10.93921   1.10700761e+04
    10.92726   1.11064904e+04
    10.91533   1.10780851e+04
    10.90343   1.12291569e+04
    10.89155   1.12276180e+04
    10.87970   1.11402460e+04
    10.86788   1.12334862e+04
    10.85608   1.11578470e+04
    10.84431   1.12827585e+04
    10.83256   1.11612206e+04
    10.82084   1.13355667e+04
    10.80914   1.12019945e+04
    10.79747   1.13908009e+04
    10.78582   1.12055129e+04
    10.77420   1.14095427e+04
    10.76261   1.12643751e+04
    10.75104   1.14065120e+04
    10.73949   1.12788970e+04
    10.72797   1.13953838e+04
    10.71647   1.13297064e+04
    10.70500   1.14537552e+04
    10.69355   1.12837509e+04
    10.68213   1.15015476e+04
    10.67073   1.12907479e+04
    10.65936   1.15159363e+04
    10.64801   1.13170748e+04
    10.63668   1.13777175e+04
    10.62538   1.15118521e+04
    10.61410   1.14141442e+04
    10.60285   1.15344200e+04
    10.59162   1.14405755e+04
    10.58041   1.15720979e+04
    10.56923   1.14784943e+04
    10.55807   1.15978651e+04
    10.54693   1.14598927e+04
    10.53582   1.14998135e+04
    10.52473   1.16327755e+04
    10.51367   1.15530286e+04
    10.50263   1.17284239e+04
    10.49161   1.16243760e+04
    10.48061   1.16215805e+04
    10.46964   1.17487104e+04
    10.45869   1.16743920e+04
    10.44776   1.17669280e+04
    10.43686   1.17068467e+04
    10.42598   1.18157405e+04
    10.41512   1.18346267e+04
    10.40428   1.18501278e+04
    10.39347   1.18485627e+04
    10.38268   1.18807394e+04
    10.37191   1.19089608e+04
    10.36116   1.18828183e+04
    10.35044   1.18777401e+04
    10.33973   1.19472720e+04
    10.32905   1.19258022e+04
    10.31840   1.18816775e+04
    10.30776   1.19063735e+04
    10.29715   1.20091647e+04
    10.28655   1.19234057e+04
    10.27598   1.19202417e+04
    10.26543   1.19183328e+04
    10.25491   1.21015279e+04
    10.24440   1.19289856e+04
    10.23392   1.19632843e+04
    10.22346   1.19518722e+04
    10.21301   1.21360989e+04
    10.20259   1.19608843e+04
    10.19220   1.19779987e+04
    10.18182   1.20116656e+04
    10.17146   1.20206354e+04
    10.16113   1.20155969e+04
    10.15081   1.20467925e+04
    10.14052   1.20463361e+04
    10.13025   1.21029301e+04
    10.11999   1.21957409e+04
    10.10976   1.21004902e+04
    10.09955   1.20569989e+04
    10.08936   1.21437999e+04
    10.07919   1.21986117e+04
    10.06904   1.22161900e+04
    10.05892   1.21985959e+04
    10.04881   1.22284861e+04
    10.03872   1.22368614e+04
    10.02865   1.22402116e+04
    10.01861   1.22534402e+04
    10.00858   1.22807494e+04
     9.99857   1.23668209e+04
     9.98858   1.22564197e+04
     9.97862   1.24126321e+04
     9.96867   1.22582166e+04
     9.95874   1.24430877e+04
     9.94883   1.22917516e+04
     9.93895   1.24563879e+04
     9.92908   1.24290291e+04
     9.91923   1.23686733e+04
     9.90940   1.24705925e+04
     9.89959   1.23307436e+04
     9.88980   1.25064076e+04
     9.88003   1.23566426e+04
     9.87028   1.25170157e+04
     9.86054   1.23953816e+04
     9.85083   1.24886192e+04
     9.84114   1.25708309e+04
     9.83146   1.23391726e+04
     9.82180   1.25738671e+04
     9.81217   1.23608657e+04
     9.80255   1.25851447e+04
     9.79295   1.24112191e+04
