# Wavenumber   Flux
#       [um]   [erg/s/cm]
    28.00000   2.54085778e+03
    27.92182   2.55234424e+03
    27.84407   2.56395405e+03
    27.76676   2.57552535e+03
    27.68987   2.58710066e+03
    27.61341   2.59868807e+03
    27.53737   2.61028591e+03
    27.46175   2.62187677e+03
    27.38654   2.63349830e+03
    27.31174   2.64512899e+03
    27.23735   2.65677214e+03
    27.16337   2.66841995e+03
    27.08978   2.68007320e+03
    27.01660   2.69175634e+03
    26.94380   2.70344225e+03
    26.87140   2.71513823e+03
    26.79939   2.72682890e+03
    26.72776   2.73833479e+03
    26.65651   2.75023824e+03
    26.58564   2.76184825e+03
    26.51515   2.77374509e+03
    26.44503   2.78550393e+03
    26.37528   2.79726792e+03
    26.30590   2.80903812e+03
    26.23688   2.82081097e+03
    26.16822   2.83260413e+03
    26.09993   2.84440174e+03
    26.03198   2.85616816e+03
    25.96439   2.86801428e+03
    25.89715   2.87984290e+03
    25.83026   2.89167365e+03
    25.76371   2.90351309e+03
    25.69750   2.91535661e+03
    25.63164   2.92720510e+03
    25.56611   2.93906981e+03
    25.50091   2.95094752e+03
    25.43605   2.96282600e+03
    25.37151   2.97450216e+03
    25.30730   2.98659954e+03
    25.24342   2.99846486e+03
    25.17986   3.01034555e+03
    25.11661   3.02220583e+03
    25.05369   3.03404462e+03
    24.99107   3.04610046e+03
    24.92877   3.05806159e+03
    24.86679   3.07002349e+03
    24.80510   3.08197159e+03
    24.74373   3.09392329e+03
    24.68265   3.10588555e+03
    24.62188   3.11785248e+03
    24.56140   3.12982476e+03
    24.50123   3.14180041e+03
    24.44134   3.15378938e+03
    24.38175   3.16578191e+03
    24.32245   3.17777672e+03
    24.26343   3.18977807e+03
    24.20470   3.20178523e+03
    24.14626   3.21379615e+03
    24.08809   3.22581034e+03
    24.03021   3.23783455e+03
    23.97260   3.24985741e+03
    23.91527   3.26180359e+03
    23.85821   3.27376036e+03
    23.80143   3.28595047e+03
    23.74491   3.29800137e+03
    23.68866   3.31006077e+03
    23.63268   3.32198247e+03
    23.57696   3.33416291e+03
    23.52151   3.34615075e+03
    23.46631   3.35829401e+03
    23.41137   3.37036143e+03
    23.35669   3.38243107e+03
    23.30226   3.39447682e+03
    23.24809   3.40655402e+03
    23.19417   3.41863483e+03
    23.14050   3.43071870e+03
    23.08707   3.44280498e+03
    23.03389   3.45489282e+03
    22.98096   3.46694084e+03
    22.92827   3.47892680e+03
    22.87582   3.49116969e+03
    22.82361   3.50326587e+03
    22.77163   3.51536338e+03
    22.71990   3.52746174e+03
    22.66839   3.53956175e+03
    22.61712   3.55165909e+03
    22.56609   3.56376713e+03
    22.51528   3.57574611e+03
    22.46470   3.58797431e+03
    22.41435   3.60005017e+03
    22.36422   3.61211118e+03
    22.31431   3.62429569e+03
    22.26463   3.63640233e+03
    22.21517   3.64850169e+03
    22.16593   3.66062253e+03
    22.11690   3.67271824e+03
    22.06810   3.68481424e+03
    22.01950   3.69695297e+03
    21.97112   3.70905060e+03
    21.92296   3.72117649e+03
    21.87500   3.73328652e+03
    21.82725   3.74535945e+03
    21.77971   3.75751190e+03
    21.73238   3.76962396e+03
    21.68525   3.78162555e+03
    21.63833   3.79384832e+03
    21.59161   3.80595088e+03
    21.54509   3.81803123e+03
    21.49877   3.83014533e+03
    21.45265   3.84225733e+03
    21.40673   3.85436836e+03
    21.36100   3.86638985e+03
    21.31547   3.87854250e+03
    21.27013   3.89068131e+03
    21.22498   3.90279690e+03
    21.18003   3.91490262e+03
    21.13527   3.92700420e+03
    21.09069   3.93911192e+03
    21.04630   3.95121727e+03
    21.00210   3.96322392e+03
    20.95808   3.97541540e+03
    20.91425   3.98751026e+03
    20.87060   3.99960414e+03
    20.82713   4.01169511e+03
    20.78385   4.02375671e+03
    20.74074   4.03586994e+03
    20.69781   4.04795388e+03
    20.65506   4.06003342e+03
    20.61249   4.07211503e+03
    20.57009   4.08411265e+03
    20.52786   4.09626630e+03
    20.48581   4.10833123e+03
    20.44393   4.12039917e+03
    20.40222   4.13247679e+03
    20.36067   4.14449757e+03
    20.31930   4.15658613e+03
    20.27810   4.16866735e+03
    20.23706   4.18069663e+03
    20.19619   4.19277900e+03
    20.15549   4.20483550e+03
    20.11494   4.21689122e+03
    20.07456   4.22894283e+03
    20.03434   4.24099124e+03
    19.99429   4.25303860e+03
    19.95439   4.26497817e+03
    19.91465   4.27706421e+03
    19.87507   4.28912582e+03
    19.83565   4.30115302e+03
    19.79638   4.31320908e+03
    19.75727   4.32524538e+03
    19.71831   4.33727636e+03
    19.67951   4.34929353e+03
    19.64085   4.36134003e+03
    19.60235   4.37330789e+03
    19.56400   4.38539239e+03
    19.52580   4.39741512e+03
    19.48775   4.40943080e+03
    19.44985   4.42140030e+03
    19.41209   4.43342366e+03
    19.37448   4.44548240e+03
    19.33702   4.45747665e+03
    19.29970   4.46949042e+03
    19.26252   4.48148578e+03
    19.22549   4.49350897e+03
    19.18860   4.50551229e+03
    19.15185   4.51751141e+03
    19.11524   4.52950425e+03
    19.07877   4.54150222e+03
    19.04244   4.55349446e+03
    19.00624   4.56542597e+03
    18.97019   4.57747275e+03
    18.93427   4.58945629e+03
    18.89849   4.60144439e+03
    18.86284   4.61342819e+03
    18.82733   4.62540993e+03
    18.79195   4.63738995e+03
    18.75670   4.64936420e+03
    18.72158   4.66131309e+03
    18.68660   4.67332452e+03
    18.65175   4.68529799e+03
    18.61702   4.69725658e+03
    18.58243   4.70924097e+03
    18.54796   4.72118703e+03
    18.51362   4.73319440e+03
    18.47941   4.74511800e+03
    18.44532   4.75709280e+03
    18.41136   4.76906604e+03
    18.37753   4.78103028e+03
    18.34382   4.79301463e+03
    18.31023   4.80498781e+03
    18.27676   4.81696375e+03
    18.24342   4.82893358e+03
    18.21020   4.84091478e+03
    18.17710   4.85285752e+03
    18.14412   4.86484040e+03
    18.11125   4.87684815e+03
    18.07851   4.88882591e+03
    18.04589   4.90080330e+03
    18.01338   4.91279096e+03
    17.98099   4.92477820e+03
    17.94872   4.93674027e+03
    17.91656   4.94875049e+03
    17.88452   4.96074523e+03
    17.85259   4.97273744e+03
    17.82077   4.98472507e+03
    17.78907   4.99673201e+03
    17.75748   5.00873543e+03
    17.72601   5.02071672e+03
    17.69464   5.03274409e+03
    17.66339   5.04475849e+03
    17.63224   5.05677086e+03
    17.60121   5.06878950e+03
    17.57028   5.08080957e+03
    17.53946   5.09283665e+03
    17.50875   5.10485390e+03
    17.47815   5.11689878e+03
    17.44766   5.12893396e+03
    17.41727   5.14095927e+03
    17.38698   5.15300378e+03
    17.35681   5.16506261e+03
    17.32673   5.17712294e+03
    17.29676   5.18918752e+03
    17.26690   5.20125415e+03
    17.23713   5.21330801e+03
    17.20747   5.22539346e+03
    17.17791   5.23748152e+03
    17.14846   5.24956630e+03
    17.11910   5.26164689e+03
    17.08984   5.27374335e+03
    17.06069   5.28581043e+03
    17.03163   5.29792207e+03
    17.00267   5.31003889e+03
    16.97381   5.32214881e+03
    16.94505   5.33429154e+03
    16.91638   5.34642952e+03
    16.88782   5.35856392e+03
    16.85934   5.37072309e+03
    16.83097   5.38287869e+03
    16.80269   5.39504294e+03
    16.77450   5.40721423e+03
    16.74641   5.41939227e+03
    16.71841   5.43156691e+03
    16.69051   5.44377070e+03
    16.66270   5.45594579e+03
    16.63498   5.46817702e+03
    16.60735   5.48038848e+03
    16.57982   5.49261724e+03
    16.55238   5.50484883e+03
    16.52502   5.51709062e+03
    16.49776   5.52933517e+03
    16.47059   5.54158828e+03
    16.44350   5.55385570e+03
    16.41651   5.56612915e+03
    16.38960   5.57839995e+03
    16.36279   5.59069713e+03
    16.33606   5.60298651e+03
    16.30941   5.61529643e+03
    16.28286   5.62760563e+03
    16.25639   5.63993135e+03
    16.23000   5.65225440e+03
    16.20370   5.66460010e+03
    16.17749   5.67694696e+03
    16.15136   5.68930296e+03
    16.12532   5.70165826e+03
    16.09936   5.71403443e+03
    16.07348   5.72642131e+03
    16.04768   5.73880967e+03
    16.02197   5.75120644e+03
    15.99634   5.76360573e+03
    15.97080   5.77602662e+03
    15.94533   5.78845534e+03
    15.91995   5.80088689e+03
    15.89464   5.81332721e+03
    15.86942   5.82577479e+03
    15.84427   5.83823128e+03
    15.81921   5.85069641e+03
    15.79422   5.86316307e+03
    15.76932   5.87564372e+03
    15.74449   5.88812811e+03
    15.71974   5.90062892e+03
    15.69507   5.91313758e+03
    15.67047   5.92564919e+03
    15.64595   5.93816840e+03
    15.62151   5.95068597e+03
    15.59715   5.96323050e+03
    15.57286   5.97576681e+03
    15.54865   5.98831743e+03
    15.52451   6.00087787e+03
    15.50044   6.01344392e+03
    15.47645   6.02594681e+03
    15.45254   6.03852401e+03
    15.42870   6.05110970e+03
    15.40493   6.06370635e+03
    15.38123   6.07630705e+03
    15.35761   6.08891166e+03
    15.33406   6.10152610e+03
    15.31059   6.11414879e+03
    15.28718   6.12677636e+03
    15.26385   6.13940908e+03
    15.24058   6.15204888e+03
    15.21739   6.16469536e+03
    15.19427   6.17734708e+03
    15.17122   6.18999615e+03
    15.14824   6.20266922e+03
    15.12532   6.21533924e+03
    15.10248   6.22801489e+03
    15.07971   6.24069594e+03
    15.05700   6.25338086e+03
    15.03436   6.26607427e+03
    15.01179   6.27877099e+03
    14.98929   6.29146765e+03
    14.96686   6.30416529e+03
    14.94449   6.31688451e+03
    14.92219   6.32959782e+03
    14.89996   6.34231731e+03
    14.87779   6.35504727e+03
    14.85569   6.36777621e+03
    14.83365   6.38050841e+03
    14.81168   6.39324492e+03
    14.78977   6.40598202e+03
    14.76793   6.41872601e+03
    14.74616   6.43147167e+03
    14.72444   6.44421886e+03
    14.70279   6.45697083e+03
    14.68121   6.46972241e+03
    14.65969   6.48247925e+03
    14.63823   6.49523761e+03
    14.61683   6.50799873e+03
    14.59550   6.52076020e+03
    14.57422   6.53352631e+03
    14.55301   6.54629152e+03
    14.53187   6.55905740e+03
    14.51078   6.57182070e+03
    14.48975   6.58459453e+03
    14.46879   6.59736678e+03
    14.44788   6.61013898e+03
    14.42704   6.62290622e+03
    14.40626   6.63568082e+03
    14.38553   6.64845611e+03
    14.36487   6.66122898e+03
    14.34426   6.67399758e+03
    14.32372   6.68677007e+03
    14.30323   6.69954490e+03
    14.28280   6.71231549e+03
    14.26243   6.72508566e+03
    14.24212   6.73785236e+03
    14.22186   6.75062164e+03
    14.20166   6.76337824e+03
    14.18152   6.77614924e+03
    14.16144   6.78891393e+03
    14.14141   6.80167538e+03
    14.12144   6.81443378e+03
    14.10153   6.82719111e+03
    14.08167   6.83994441e+03
    14.06187   6.85269628e+03
    14.04213   6.86544492e+03
    14.02244   6.87818949e+03
    14.00280   6.89093044e+03
    13.98322   6.90367096e+03
    13.96369   6.91640628e+03
    13.94422   6.92913891e+03
    13.92481   6.94186626e+03
    13.90544   6.95458813e+03
    13.88613   6.96730840e+03
    13.86688   6.98002332e+03
    13.84768   6.99273418e+03
    13.82853   7.00543986e+03
    13.80943   7.01814118e+03
    13.79039   7.03083724e+03
    13.77139   7.04352726e+03
    13.75246   7.05621378e+03
    13.73357   7.06889366e+03
    13.71473   7.08156922e+03
    13.69595   7.09423720e+03
    13.67722   7.10690405e+03
    13.65854   7.11956226e+03
    13.63991   7.13214528e+03
    13.62133   7.14479337e+03
    13.60280   7.15743302e+03
    13.58432   7.17007085e+03
    13.56589   7.18270050e+03
    13.54751   7.19532318e+03
    13.52918   7.20794092e+03
    13.51091   7.22054964e+03
    13.49268   7.23315493e+03
    13.47449   7.24574817e+03
    13.45636   7.25834163e+03
    13.43828   7.27092425e+03
    13.42025   7.28349655e+03
    13.40226   7.29607062e+03
    13.38432   7.30863208e+03
    13.36643   7.32118540e+03
    13.34859   7.33373168e+03
    13.33079   7.34626967e+03
    13.31305   7.35879899e+03
    13.29535   7.37131770e+03
    13.27769   7.38383587e+03
    13.26009   7.39634119e+03
    13.24253   7.40883807e+03
    13.22501   7.42132492e+03
    13.20755   7.43380617e+03
    13.19013   7.44627663e+03
    13.17275   7.45873756e+03
    13.15542   7.47118944e+03
    13.13814   7.48363037e+03
    13.12090   7.49606529e+03
    13.10371   7.50848953e+03
    13.08656   7.52090392e+03
    13.06945   7.53330864e+03
    13.05240   7.54570425e+03
    13.03538   7.55808602e+03
    13.01841   7.57046661e+03
    13.00149   7.58283468e+03
    12.98460   7.59519174e+03
    12.96777   7.60754030e+03
    12.95097   7.61987962e+03
    12.93422   7.63220927e+03
    12.91751   7.64452895e+03
    12.90085   7.65683936e+03
    12.88423   7.66914080e+03
    12.86765   7.68143207e+03
    12.85111   7.69371432e+03
    12.83462   7.70598700e+03
    12.81817   7.71825016e+03
    12.80176   7.73050525e+03
    12.78539   7.74274959e+03
    12.76906   7.75498449e+03
    12.75278   7.76720861e+03
    12.73654   7.77942442e+03
    12.72033   7.79163099e+03
    12.70417   7.80382651e+03
    12.68806   7.81601184e+03
    12.67198   7.82819007e+03
    12.65594   7.84035629e+03
    12.63994   7.85251248e+03
    12.62399   7.86465837e+03
    12.60807   7.87679482e+03
    12.59219   7.88891769e+03
    12.57636   7.90103626e+03
    12.56056   7.91313979e+03
    12.54480   7.92523535e+03
    12.52909   7.93731970e+03
    12.51341   7.94938998e+03
    12.49777   7.96145738e+03
    12.48217   7.97351000e+03
    12.46661   7.98555189e+03
    12.45109   7.99757992e+03
    12.43560   8.00960319e+03
    12.42016   8.02161301e+03
    12.40475   8.03361002e+03
    12.38938   8.04559614e+03
    12.37405   8.05757263e+03
    12.35876   8.06954304e+03
    12.34350   8.08149781e+03
    12.32828   8.09344240e+03
    12.31310   8.10537499e+03
    12.29796   8.11729777e+03
    12.28286   8.12920642e+03
    12.26779   8.14110727e+03
    12.25276   8.15299606e+03
    12.23776   8.16487414e+03
    12.22280   8.17674180e+03
    12.20788   8.18859692e+03
    12.19300   8.20044106e+03
    12.17815   8.21227371e+03
    12.16334   8.22409510e+03
    12.14856   8.23590479e+03
    12.13382   8.24770327e+03
    12.11911   8.25948964e+03
    12.10444   8.27126411e+03
    12.08981   8.28302543e+03
    12.07521   8.29477468e+03
    12.06065   8.30651735e+03
    12.04612   8.31824392e+03
    12.03163   8.32995825e+03
    12.01717   8.34165966e+03
    12.00274   8.35334989e+03
    11.98835   8.36502638e+03
    11.97400   8.37668981e+03
    11.95968   8.38834289e+03
    11.94539   8.39987503e+03
    11.93114   8.41150195e+03
    11.91692   8.42311547e+03
    11.90274   8.43471494e+03
    11.88859   8.44630246e+03
    11.87447   8.45787607e+03
    11.86039   8.46943615e+03
    11.84634   8.48098269e+03
    11.83232   8.49251547e+03
    11.81834   8.50403386e+03
    11.80438   8.51553788e+03
    11.79047   8.52702986e+03
    11.77658   8.53850831e+03
    11.76273   8.54997183e+03
    11.74891   8.56141858e+03
    11.73512   8.57285507e+03
    11.72137   8.58427199e+03
    11.70764   8.59568055e+03
    11.69395   8.60707501e+03
    11.68029   8.61845221e+03
    11.66667   8.62981467e+03
    11.65307   8.64116058e+03
    11.63951   8.65249566e+03
    11.62598   8.66381283e+03
    11.61248   8.67511684e+03
    11.59901   8.68640528e+03
    11.58557   8.69767819e+03
    11.57216   8.70893574e+03
    11.55878   8.72017772e+03
    11.54544   8.73140355e+03
    11.53213   8.74261566e+03
    11.51884   8.75380649e+03
    11.50559   8.76499105e+03
    11.49237   8.77615481e+03
    11.47917   8.78730223e+03
    11.46601   8.79843230e+03
    11.45288   8.80954828e+03
    11.43978   8.82064767e+03
    11.42671   8.83172982e+03
    11.41366   8.84279548e+03
    11.40065   8.85384444e+03
    11.38767   8.86487618e+03
    11.37472   8.87589152e+03
    11.36179   8.88688965e+03
    11.34890   8.89787058e+03
    11.33603   8.90883412e+03
    11.32320   8.91977909e+03
    11.31039   8.93070872e+03
    11.29761   8.94161951e+03
    11.28486   8.95251259e+03
    11.27214   8.96338726e+03
    11.25945   8.97424145e+03
    11.24679   8.98508331e+03
    11.23415   8.99590361e+03
    11.22155   9.00670570e+03
    11.20897   9.01748646e+03
    11.19642   9.02825359e+03
    11.18390   9.03899910e+03
    11.17140   9.04972594e+03
    11.15894   9.06043320e+03
    11.14650   9.07112168e+03
    11.13409   9.08179038e+03
    11.12170   9.09243970e+03
    11.10935   9.10306863e+03
    11.09702   9.11367903e+03
    11.08472   9.12426873e+03
    11.07245   9.13483463e+03
    11.06020   9.14538957e+03
    11.04798   9.15591970e+03
    11.03579   9.16642918e+03
    11.02362   9.17692196e+03
    11.01148   9.18738997e+03
    10.99937   9.19784534e+03
    10.98729   9.20827793e+03
    10.97523   9.21868950e+03
    10.96319   9.22908351e+03
    10.95119   9.23945838e+03
    10.93921   9.24981007e+03
    10.92726   9.26014743e+03
    10.91533   9.27046105e+03
    10.90343   9.28075849e+03
    10.89155   9.29103367e+03
    10.87970   9.30129091e+03
    10.86788   9.31152906e+03
    10.85608   9.32174411e+03
    10.84431   9.33194580e+03
    10.83256   9.34212432e+03
    10.82084   9.35228501e+03
    10.80914   9.36242591e+03
    10.79747   9.37254941e+03
    10.78582   9.38264834e+03
    10.77420   9.39273511e+03
    10.76261   9.40279761e+03
    10.75104   9.41284528e+03
    10.73949   9.42286898e+03
    10.72797   9.43288051e+03
    10.71647   9.44287078e+03
    10.70500   9.45284478e+03
    10.69355   9.46271667e+03
    10.68213   9.47265205e+03
    10.67073   9.48256918e+03
    10.65936   9.49246854e+03
    10.64801   9.50234850e+03
    10.63668   9.51221108e+03
    10.62538   9.52205448e+03
    10.61410   9.53188050e+03
    10.60285   9.54168799e+03
    10.59162   9.55147782e+03
    10.58041   9.56125041e+03
    10.56923   9.57100563e+03
    10.55807   9.58074456e+03
    10.54693   9.59046331e+03
    10.53582   9.60017000e+03
    10.52473   9.60985813e+03
    10.51367   9.61953061e+03
    10.50263   9.62918644e+03
    10.49161   9.63882739e+03
    10.48061   9.64845132e+03
    10.46964   9.65806159e+03
    10.45869   9.66765396e+03
    10.44776   9.67723465e+03
    10.43686   9.68679642e+03
    10.42598   9.69634628e+03
    10.41512   9.70588236e+03
    10.40428   9.71540087e+03
    10.39347   9.72490833e+03
    10.38268   9.73440252e+03
    10.37191   9.74388176e+03
    10.36116   9.75335022e+03
    10.35044   9.76280786e+03
    10.33973   9.77224986e+03
    10.32905   9.78169078e+03
    10.31840   9.79111519e+03
    10.30776   9.80052614e+03
    10.29715   9.80992698e+03
    10.28655   9.81931701e+03
    10.27598   9.82869822e+03
    10.26543   9.83807025e+03
    10.25491   9.84743303e+03
    10.24440   9.85678714e+03
    10.23392   9.86613329e+03
    10.22346   9.87547158e+03
    10.21301   9.88480254e+03
    10.20259   9.89412642e+03
    10.19220   9.90344375e+03
    10.18182   9.91275476e+03
    10.17146   9.92205962e+03
    10.16113   9.93135875e+03
    10.15081   9.94065252e+03
    10.14052   9.94994100e+03
    10.13025   9.95922453e+03
    10.11999   9.96850342e+03
    10.10976   9.97777789e+03
    10.09955   9.98704862e+03
    10.08936   9.99631556e+03
    10.07919   1.00055778e+04
    10.06904   1.00148376e+04
    10.05892   1.00240965e+04
    10.04881   1.00333514e+04
    10.03872   1.00426040e+04
    10.02865   1.00518547e+04
    10.01861   1.00611037e+04
    10.00858   1.00703512e+04
     9.99857   1.00795979e+04
     9.98858   1.00888437e+04
     9.97862   1.00980895e+04
     9.96867   1.01073353e+04
     9.95874   1.01165820e+04
     9.94883   1.01258299e+04
     9.93895   1.01350794e+04
     9.92908   1.01443296e+04
     9.91923   1.01535859e+04
     9.90940   1.01628434e+04
     9.89959   1.01721047e+04
     9.88980   1.01813683e+04
     9.88003   1.01906407e+04
     9.87028   1.01999160e+04
     9.86054   1.02091984e+04
     9.85083   1.02184868e+04
     9.84114   1.02277813e+04
     9.83146   1.02370831e+04
     9.82180   1.02463929e+04
     9.81217   1.02557111e+04
     9.80255   1.02650382e+04
     9.79295   1.02743747e+04
