# Wavenumber   Flux
#       [um]   [erg/s/cm]
    28.00000   2.52001507e+03
    27.92182   2.53137375e+03
    27.84407   2.54286120e+03
    27.76676   2.55430667e+03
    27.68987   2.56575550e+03
    27.61341   2.57721598e+03
    27.53737   2.58868638e+03
    27.46175   2.60016788e+03
    27.38654   2.61163051e+03
    27.31174   2.62313240e+03
    27.23735   2.63464626e+03
    27.16337   2.64616413e+03
    27.08978   2.65768657e+03
    27.01660   2.66923926e+03
    26.94380   2.68079425e+03
    26.87140   2.69235855e+03
    26.79939   2.70391680e+03
    26.72776   2.71527822e+03
    26.65651   2.72705824e+03
    26.58564   2.73852859e+03
    26.51515   2.75029907e+03
    26.44503   2.76192342e+03
    26.37528   2.77355228e+03
    26.30590   2.78518678e+03
    26.23688   2.79682320e+03
    26.16822   2.80847983e+03
    26.09993   2.82014024e+03
    26.03198   2.83176723e+03
    25.96439   2.84347636e+03
    25.89715   2.85516666e+03
    25.83026   2.86685814e+03
    25.76371   2.87855777e+03
    25.69750   2.89026091e+03
    25.63164   2.90196851e+03
    25.56611   2.91369188e+03
    25.50091   2.92542773e+03
    25.43605   2.93716379e+03
    25.37151   2.94868617e+03
    25.30730   2.96065073e+03
    25.24342   2.97240617e+03
    25.17986   2.98411481e+03
    25.11661   2.99582736e+03
    25.05369   3.00751617e+03
    24.99107   3.01943222e+03
    24.92877   3.03124837e+03
    24.86679   3.04306337e+03
    24.80510   3.05486352e+03
    24.74373   3.06666667e+03
    24.68265   3.07847983e+03
    24.62188   3.09029715e+03
    24.56140   3.10211919e+03
    24.50123   3.11394403e+03
    24.44134   3.12578156e+03
    24.38175   3.13762217e+03
    24.32245   3.14946440e+03
    24.26343   3.16131257e+03
    24.20470   3.17316599e+03
    24.14626   3.18502254e+03
    24.08809   3.19688171e+03
    24.03021   3.20875039e+03
    23.97260   3.22061707e+03
    23.91527   3.23240174e+03
    23.85821   3.24419793e+03
    23.80143   3.25623677e+03
    23.74491   3.26812992e+03
    23.68866   3.28003028e+03
    23.63268   3.29178601e+03
    23.57696   3.30381184e+03
    23.52151   3.31563547e+03
    23.46631   3.32761999e+03
    23.41137   3.33952491e+03
    23.35669   3.35143137e+03
    23.30226   3.36334154e+03
    23.24809   3.37521649e+03
    23.19417   3.38713213e+03
    23.14050   3.39905026e+03
    23.08707   3.41097004e+03
    23.03389   3.42289067e+03
    22.98096   3.43476919e+03
    22.92827   3.44658164e+03
    22.87582   3.45866166e+03
    22.82361   3.47058775e+03
    22.77163   3.48251444e+03
    22.71990   3.49444126e+03
    22.66839   3.50636895e+03
    22.61712   3.51829310e+03
    22.56609   3.53022748e+03
    22.51528   3.54202653e+03
    22.46470   3.55408480e+03
    22.41435   3.56598355e+03
    22.36422   3.57786574e+03
    22.31431   3.58987589e+03
    22.26463   3.60180425e+03
    22.21517   3.61372445e+03
    22.16593   3.62566577e+03
    22.11690   3.63758045e+03
    22.06810   3.64949437e+03
    22.01950   3.66145261e+03
    21.97112   3.67336716e+03
    21.92296   3.68531005e+03
    21.87500   3.69723583e+03
    21.82725   3.70912163e+03
    21.77971   3.72109087e+03
    21.73238   3.73301654e+03
    21.68525   3.74482678e+03
    21.63833   3.75686604e+03
    21.59161   3.76877993e+03
    21.54509   3.78071352e+03
    21.49877   3.79260001e+03
    21.45265   3.80452118e+03
    21.40673   3.81644059e+03
    21.36100   3.82826635e+03
    21.31547   3.84022753e+03
    21.27013   3.85217349e+03
    21.22498   3.86409477e+03
    21.18003   3.87600466e+03
    21.13527   3.88790970e+03
    21.09069   3.89982076e+03
    21.04630   3.91172814e+03
    21.00210   3.92353276e+03
    20.95808   3.93552778e+03
    20.91425   3.94742213e+03
    20.87060   3.95931466e+03
    20.82713   3.97120343e+03
    20.78385   3.98306106e+03
    20.74074   3.99497129e+03
    20.69781   4.00685046e+03
    20.65506   4.01872425e+03
    20.61249   4.03059956e+03
    20.57009   4.04238723e+03
    20.52786   4.05433545e+03
    20.48581   4.06619138e+03
    20.44393   4.07804933e+03
    20.40222   4.08991668e+03
    20.36067   4.10172459e+03
    20.31930   4.11360172e+03
    20.27810   4.12547065e+03
    20.23706   4.13728526e+03
    20.19619   4.14915388e+03
    20.15549   4.16099503e+03
    20.11494   4.17283460e+03
    20.07456   4.18466927e+03
    20.03434   4.19649995e+03
    19.99429   4.20832881e+03
    19.95439   4.22008680e+03
    19.91465   4.23190829e+03
    19.87507   4.24375046e+03
    19.83565   4.25555559e+03
    19.79638   4.26739007e+03
    19.75727   4.27920342e+03
    19.71831   4.29101052e+03
    19.67951   4.30280301e+03
    19.64085   4.31462477e+03
    19.60235   4.32636495e+03
    19.56400   4.33822461e+03
    19.52580   4.35002000e+03
    19.48775   4.36180760e+03
    19.44985   4.37351022e+03
    19.41209   4.38534109e+03
    19.37448   4.39717085e+03
    19.33702   4.40893339e+03
    19.29970   4.42066240e+03
    19.26252   4.43247868e+03
    19.22549   4.44426994e+03
    19.18860   4.45603972e+03
    19.15185   4.46772660e+03
    19.11524   4.47956255e+03
    19.07877   4.49132509e+03
    19.04244   4.50308120e+03
    19.00624   4.51466113e+03
    18.97019   4.52658539e+03
    18.93427   4.53833098e+03
    18.89849   4.55008054e+03
    18.86284   4.56166224e+03
    18.82733   4.57356728e+03
    18.79195   4.58530705e+03
    18.75670   4.59704044e+03
    18.72158   4.60851310e+03
    18.68660   4.62051762e+03
    18.65175   4.63224865e+03
    18.61702   4.64396408e+03
    18.58243   4.65537052e+03
    18.54796   4.66740649e+03
    18.51362   4.67917067e+03
    18.47941   4.69089999e+03
    18.44532   4.70210560e+03
    18.41136   4.71430756e+03
    18.37753   4.72602702e+03
    18.34382   4.73776503e+03
    18.31023   4.74881391e+03
    18.27676   4.76121985e+03
    18.24342   4.77294185e+03
    18.21020   4.78467527e+03
    18.17710   4.79541205e+03
    18.14412   4.80810317e+03
    18.11125   4.81986238e+03
    18.07851   4.83151941e+03
    18.04589   4.81953069e+03
    18.01338   4.85505604e+03
    17.98099   4.83368082e+03
    17.94872   4.87454211e+03
    17.91656   4.88838036e+03
    17.88452   4.82411155e+03
    17.85259   4.91374848e+03
    17.82077   4.92527371e+03
    17.78907   4.83871055e+03
    17.75748   4.94899152e+03
    17.72601   4.88948348e+03
    17.69464   4.86047732e+03
    17.66339   4.95737005e+03
    17.63224   4.90776172e+03
    17.60121   4.86911587e+03
    17.57028   4.98419206e+03
    17.53946   4.91867538e+03
    17.50875   4.87227166e+03
    17.47815   4.98154828e+03
    17.44766   4.95453403e+03
    17.41727   4.86961626e+03
    17.38698   5.00068888e+03
    17.35681   4.84794278e+03
    17.32673   4.93863289e+03
    17.29676   5.05738136e+03
    17.26690   4.72392356e+03
    17.23713   5.09509093e+03
    17.20747   4.89674459e+03
    17.17791   4.78359333e+03
    17.14846   5.15323199e+03
    17.11910   4.87927493e+03
    17.08984   4.72575484e+03
    17.06069   5.22030907e+03
    17.03163   4.85741478e+03
    17.00267   4.66445385e+03
    16.97381   5.25412899e+03
    16.94505   4.77947922e+03
    16.91638   4.65120421e+03
    16.88782   5.15313661e+03
    16.85934   4.78674877e+03
    16.83097   4.58585604e+03
    16.80269   5.14437717e+03
    16.77450   4.74134070e+03
    16.74641   4.44552978e+03
    16.71841   4.71800973e+03
    16.69051   5.21190719e+03
    16.66270   4.34471287e+03
    16.63498   4.64332558e+03
    16.60735   5.07404680e+03
    16.57982   4.29974966e+03
    16.55238   4.56266813e+03
    16.52502   5.07617762e+03
    16.49776   4.16751438e+03
    16.47059   4.39185117e+03
    16.44350   5.30270948e+03
    16.41651   4.00922953e+03
    16.38960   4.30074912e+03
    16.36279   5.29011068e+03
    16.33606   3.50270120e+03
    16.30941   5.01219426e+03
    16.28286   3.80737781e+03
    16.25639   4.10173550e+03
    16.23000   4.82480757e+03
    16.20370   3.62946874e+03
    16.17749   4.04636208e+03
    16.15136   4.56813617e+03
    16.12532   3.37853085e+03
    16.09936   4.20072438e+03
    16.07348   4.41671058e+03
    16.04768   2.91540661e+03
    16.02197   5.14161530e+03
    15.99634   4.54080304e+03
    15.97080   2.75856283e+03
    15.94533   5.09792265e+03
    15.91995   4.57503669e+03
    15.89464   2.57945959e+03
    15.86942   5.34809210e+03
    15.84427   4.55616571e+03
    15.81921   2.43872463e+03
    15.79422   5.75390405e+03
    15.76932   3.26132158e+03
    15.74449   2.54259897e+03
    15.71974   5.70663482e+03
    15.69507   3.07885215e+03
    15.67047   2.46505522e+03
    15.64595   4.79629121e+03
    15.62151   3.04512736e+03
    15.59715   2.38056338e+03
    15.57286   4.04369570e+03
    15.54865   3.05411362e+03
    15.52451   2.27104050e+03
    15.50044   2.89353840e+03
    15.47645   3.92427618e+03
    15.45254   2.19533908e+03
    15.42870   2.84372566e+03
    15.40493   3.79623706e+03
    15.38123   2.11541338e+03
    15.35761   2.67861503e+03
    15.33406   4.03990023e+03
    15.31059   2.02243483e+03
    15.28718   2.72659248e+03
    15.26385   3.57947800e+03
    15.24058   1.89443432e+03
    15.21739   3.86533324e+03
    15.19427   3.48081477e+03
    15.17122   1.86462262e+03
    15.14824   3.84525290e+03
    15.12532   3.03432027e+03
    15.10248   1.85571518e+03
    15.07971   3.83600396e+03
    15.05700   2.95411618e+03
    15.03436   1.83181541e+03
    15.01179   3.29450745e+03
    14.98929   1.84590249e+03
    14.96686   2.66259547e+03
    14.94449   3.17142464e+03
    14.92219   1.79269038e+03
    14.89996   5.48117570e+03
    14.87779   3.14689655e+03
    14.85569   1.78875251e+03
    14.83365   3.65892462e+03
    14.81168   3.97286371e+03
    14.78977   1.78732353e+03
    14.76793   3.64136915e+03
    14.74616   4.02881169e+03
    14.72444   1.78934910e+03
    14.70279   3.61699150e+03
    14.68121   4.02574808e+03
    14.65969   1.79442459e+03
    14.63823   3.51897242e+03
    14.61683   4.34725222e+03
    14.59550   1.79893080e+03
    14.57422   2.58617596e+03
    14.55301   2.88502320e+03
    14.53187   1.79272429e+03
    14.51078   3.45594200e+03
    14.48975   2.91594179e+03
    14.46879   1.82841055e+03
    14.44788   4.21871101e+03
    14.42704   3.09369609e+03
    14.40626   1.86719067e+03
    14.38553   5.96377304e+03
    14.36487   3.08864567e+03
    14.34426   1.90911320e+03
    14.32372   2.95156329e+03
    14.30323   1.73123221e+03
    14.28280   2.01146571e+03
    14.26243   6.63032509e+03
    14.24212   2.53115443e+03
    14.22186   1.92052569e+03
    14.20166   2.73290188e+03
    14.18152   3.01494356e+03
    14.16144   2.02605884e+03
    14.14141   2.42787616e+03
    14.12144   2.74612263e+03
    14.10153   3.50788730e+03
    14.08167   4.16058102e+03
    14.06187   3.24272360e+03
    14.04213   1.72695660e+03
    14.02244   1.72935119e+03
    14.00280   1.73128118e+03
    13.98322   1.73505664e+03
    13.96369   1.75542219e+03
    13.94422   1.76364709e+03
    13.92481   1.79183144e+03
    13.90544   1.95243258e+03
    13.88613   2.05110541e+03
    13.86688   2.05434334e+03
    13.84768   3.02121327e+03
    13.82853   2.36784125e+03
    13.80943   2.05401219e+03
    13.79039   3.87004954e+03
    13.77139   2.45788985e+03
    13.75246   1.94366982e+03
    13.73357   4.23844094e+03
    13.71473   2.40079383e+03
    13.69595   1.90782983e+03
    13.67722   4.40988993e+03
    13.65854   2.32480059e+03
    13.63991   1.88724274e+03
    13.62133   4.39383405e+03
    13.60280   1.84381584e+03
    13.58432   2.95394639e+03
    13.56589   4.05265673e+03
    13.54751   1.85391798e+03
    13.52918   2.54451643e+03
    13.51091   4.26307466e+03
    13.49268   1.85154962e+03
    13.47449   2.54019378e+03
    13.45636   4.32143750e+03
    13.43828   1.85317943e+03
    13.42025   2.54500140e+03
    13.40226   4.35899101e+03
    13.38432   1.85820227e+03
    13.36643   2.43230552e+03
    13.34859   6.01387313e+03
    13.33079   1.86494164e+03
    13.31305   2.88981448e+03
    13.29535   3.38423231e+03
    13.27769   1.87384450e+03
    13.26009   3.01056173e+03
    13.24253   3.32257188e+03
    13.22501   1.88552633e+03
    13.20755   3.04571715e+03
    13.19013   3.44665642e+03
    13.17275   1.89999029e+03
    13.15542   4.70859893e+03
    13.13814   2.75401554e+03
    13.12090   1.91793803e+03
    13.10371   4.86884527e+03
    13.08656   2.87339410e+03
    13.06945   1.93972508e+03
    13.05240   4.99472054e+03
    13.03538   2.98078571e+03
    13.01841   1.97081334e+03
    13.00149   4.84957979e+03
    12.98460   3.10715777e+03
    12.96777   2.00643894e+03
    12.95097   4.99232112e+03
    12.93422   4.06221036e+03
    12.91751   2.01855243e+03
    12.90085   4.91536603e+03
    12.88423   3.98889505e+03
    12.86765   2.07625363e+03
    12.85111   5.26124590e+03
    12.83462   4.15449323e+03
    12.81817   2.14035740e+03
    12.80176   5.65282373e+03
    12.78539   3.73992803e+03
    12.76906   2.30258765e+03
    12.75278   4.39285532e+03
    12.73654   2.39457244e+03
    12.72033   4.03762251e+03
    12.70417   4.62799936e+03
    12.68806   2.52884655e+03
    12.67198   4.16945461e+03
    12.65594   7.70892734e+03
    12.63994   2.53039402e+03
    12.62399   4.56786908e+03
    12.60807   7.76381982e+03
    12.59219   2.67965915e+03
    12.57636   4.84090272e+03
    12.56056   7.78605344e+03
    12.54480   2.95888672e+03
    12.52909   4.58640610e+03
    12.51341   7.30584217e+03
    12.49777   3.17594599e+03
    12.48217   4.84535409e+03
    12.46661   7.38580943e+03
    12.45109   3.42256244e+03
    12.43560   5.53623171e+03
    12.42016   6.53331424e+03
    12.40475   3.73337861e+03
    12.38938   5.48441355e+03
    12.37405   6.69028628e+03
    12.35876   4.03007517e+03
    12.34350   5.71801234e+03
    12.32828   6.33580176e+03
    12.31310   4.45542760e+03
    12.29796   5.94889724e+03
    12.28286   6.53673287e+03
    12.26779   5.00248100e+03
    12.25276   5.97783915e+03
    12.23776   4.84724927e+03
    12.22280   8.04743348e+03
    12.20788   6.22418447e+03
    12.19300   5.16052364e+03
    12.17815   8.08901914e+03
    12.16334   6.71781534e+03
    12.14856   5.43713225e+03
    12.13382   7.27909615e+03
    12.11911   7.16172077e+03
    12.10444   5.89224130e+03
    12.08981   7.11153598e+03
    12.07521   7.44518519e+03
    12.06065   6.13460181e+03
    12.04612   7.84097968e+03
    12.03163   7.11370645e+03
    12.01717   6.40788347e+03
    12.00274   7.92563768e+03
    11.98835   7.26451697e+03
    11.97400   6.69118675e+03
    11.95968   8.00531865e+03
    11.94539   7.46396619e+03
    11.93114   6.91677835e+03
    11.91692   8.07928049e+03
    11.90274   7.02287229e+03
    11.88859   8.08202004e+03
    11.87447   7.84583369e+03
    11.86039   7.19696237e+03
    11.84634   8.17788406e+03
    11.83232   8.16134520e+03
    11.81834   7.31502568e+03
    11.80438   8.26073977e+03
    11.79047   8.30914453e+03
    11.77658   7.52188986e+03
    11.76273   8.20713170e+03
    11.74891   8.20582961e+03
    11.73512   7.88880426e+03
    11.72137   8.27884277e+03
    11.70764   8.06847550e+03
    11.69395   8.14626684e+03
    11.68029   8.39632394e+03
    11.66667   8.32089943e+03
    11.65307   8.14018321e+03
    11.63951   8.52362468e+03
    11.62598   8.18069601e+03
    11.61248   8.49888751e+03
    11.59901   8.50246516e+03
    11.58557   8.48001686e+03
    11.57216   8.49676029e+03
    11.55878   8.58981850e+03
    11.54544   8.55920431e+03
    11.53213   8.58131707e+03
    11.51884   8.58766088e+03
    11.50559   8.63363325e+03
    11.49237   8.61287116e+03
    11.47917   8.65544235e+03
    11.46601   8.63965864e+03
    11.45288   8.67718677e+03
    11.43978   8.66825140e+03
    11.42671   8.69453434e+03
    11.41366   8.68951040e+03
    11.40065   8.72047354e+03
    11.38767   8.73125141e+03
    11.37472   8.72383579e+03
    11.36179   8.73759133e+03
    11.34890   8.76348399e+03
    11.33603   8.77419257e+03
    11.32320   8.77120586e+03
    11.31039   8.78421319e+03
    11.29761   8.80621029e+03
    11.28486   8.81684668e+03
    11.27214   8.81720694e+03
    11.25945   8.82961561e+03
    11.24679   8.84864317e+03
    11.23415   8.85920578e+03
    11.22155   8.86208643e+03
    11.20897   8.88026948e+03
    11.19642   8.89077654e+03
    11.18390   8.90126126e+03
    11.17140   8.90602497e+03
    11.15894   8.92216771e+03
    11.14650   8.93259821e+03
    11.13409   8.94300391e+03
    11.12170   8.95338966e+03
    11.10935   8.96375441e+03
    11.09702   8.97410009e+03
    11.08472   8.98442445e+03
    11.07245   8.99472448e+03
    11.06020   9.00501284e+03
    11.04798   9.01527582e+03
    11.03579   9.02551754e+03
    11.02362   9.03574202e+03
    11.01148   9.04594081e+03
    10.99937   9.05612686e+03
    10.98729   9.06628932e+03
    10.97523   9.07643011e+03
    10.96319   9.08655265e+03
    10.95119   9.09665557e+03
    10.93921   9.10673461e+03
    10.92726   9.11679873e+03
    10.91533   9.12683835e+03
    10.90343   9.13686136e+03
    10.89155   9.14686131e+03
    10.87970   9.15684282e+03
    10.86788   9.16680455e+03
    10.85608   9.17674236e+03
    10.84431   9.18666651e+03
    10.83256   9.19656663e+03
    10.82084   9.20644839e+03
    10.80914   9.21630969e+03
    10.79747   9.22615310e+03
    10.78582   9.23597098e+03
    10.77420   9.24577652e+03
    10.76261   9.25555689e+03
    10.75104   9.26532205e+03
    10.73949   9.27506234e+03
    10.72797   9.28479033e+03
    10.71647   9.29449645e+03
    10.70500   9.30418560e+03
    10.69355   9.31385436e+03
    10.68213   9.32350218e+03
    10.67073   9.33313124e+03
    10.65936   9.34274203e+03
    10.64801   9.35233284e+03
    10.63668   9.36175868e+03
    10.62538   9.37131298e+03
    10.61410   9.38084941e+03
    10.60285   9.39036676e+03
    10.59162   9.39986595e+03
    10.58041   9.40934738e+03
    10.56923   9.41881095e+03
    10.55807   9.42825776e+03
    10.54693   9.43768371e+03
    10.53582   9.44709744e+03
    10.52473   9.45649199e+03
    10.51367   9.46587045e+03
    10.50263   9.47523178e+03
    10.49161   9.48457785e+03
    10.48061   9.49390638e+03
    10.46964   9.50322088e+03
    10.45869   9.51251695e+03
    10.44776   9.52180107e+03
    10.43686   9.53106565e+03
    10.42598   9.54031811e+03
    10.41512   9.54955635e+03
    10.40428   9.55877650e+03
    10.39347   9.56798529e+03
    10.38268   9.57718058e+03
    10.37191   9.58636042e+03
    10.36116   9.59552934e+03
    10.35044   9.60468725e+03
    10.33973   9.61382905e+03
    10.32905   9.62297027e+03
    10.31840   9.63209439e+03
    10.30776   9.64120472e+03
    10.29715   9.65030480e+03
    10.28655   9.65939390e+03
    10.27598   9.66847414e+03
    10.26543   9.67754509e+03
    10.25491   9.68660674e+03
    10.24440   9.69565967e+03
    10.23392   9.70470465e+03
    10.22346   9.71374177e+03
    10.21301   9.72277160e+03
    10.20259   9.73179442e+03
    10.19220   9.74081076e+03
    10.18182   9.74982090e+03
    10.17146   9.75882500e+03
    10.16113   9.76782351e+03
    10.15081   9.77681682e+03
    10.14052   9.78580501e+03
    10.13025   9.79478844e+03
    10.11999   9.80376743e+03
    10.10976   9.81274224e+03
    10.09955   9.82171354e+03
    10.08936   9.83068133e+03
    10.07919   9.83964463e+03
    10.06904   9.84860583e+03
    10.05892   9.85756653e+03
    10.04881   9.86652351e+03
    10.03872   9.87547855e+03
    10.02865   9.88443197e+03
    10.01861   9.89338417e+03
    10.00858   9.90233526e+03
     9.99857   9.91128592e+03
     9.98858   9.92023622e+03
     9.97862   9.92918688e+03
     9.96867   9.93813817e+03
     9.95874   9.94709082e+03
     9.94883   9.95604524e+03
     9.93895   9.96500193e+03
     9.92908   9.97395977e+03
     9.91923   9.98292459e+03
     9.90940   9.99189120e+03
     9.89959   1.00008624e+04
     9.88980   1.00098364e+04
     9.88003   1.00188203e+04
     9.87028   1.00278078e+04
     9.86054   1.00368033e+04
     9.85083   1.00458055e+04
     9.84114   1.00548149e+04
     9.83146   1.00638325e+04
     9.82180   1.00728590e+04
     9.81217   1.00818950e+04
     9.80255   1.00909409e+04
     9.79295   1.00999973e+04
