# Wavenumber   Flux
#       [um]   [erg/s/cm]
    28.00000   2.54566522e+03
    27.92182   2.55714270e+03
    27.84407   2.56876265e+03
    27.76676   2.58033235e+03
    27.68987   2.59190612e+03
    27.61341   2.60349158e+03
    27.53737   2.61508713e+03
    27.46175   2.62669425e+03
    27.38654   2.63831199e+03
    27.31174   2.64993895e+03
    27.23735   2.66157780e+03
    27.16337   2.67322107e+03
    27.08978   2.68486760e+03
    27.01660   2.69654599e+03
    26.94380   2.70822856e+03
    26.87140   2.71991887e+03
    26.79939   2.73160465e+03
    26.72776   2.74306014e+03
    26.65651   2.75499294e+03
    26.58564   2.76657711e+03
    26.51515   2.77849361e+03
    26.44503   2.79024530e+03
    26.37528   2.80200171e+03
    26.30590   2.81376402e+03
    26.23688   2.82552838e+03
    26.16822   2.83731335e+03
    26.09993   2.84910214e+03
    26.03198   2.86085466e+03
    25.96439   2.87269422e+03
    25.89715   2.88453578e+03
    25.83026   2.89635736e+03
    25.76371   2.90818722e+03
    25.69750   2.92002086e+03
    25.63164   2.93185974e+03
    25.56611   2.94371366e+03
    25.50091   2.95557946e+03
    25.43605   2.96744638e+03
    25.37151   2.97907187e+03
    25.30730   2.99119571e+03
    25.24342   3.00308073e+03
    25.17986   3.01494087e+03
    25.11661   3.02677883e+03
    25.05369   3.03858661e+03
    24.99107   3.05065022e+03
    24.92877   3.06260376e+03
    24.86679   3.07454936e+03
    24.80510   3.08648070e+03
    24.74373   3.09841535e+03
    24.68265   3.11035976e+03
    24.62188   3.12230885e+03
    24.56140   3.13426269e+03
    24.50123   3.14621979e+03
    24.44134   3.15818860e+03
    24.38175   3.17016127e+03
    24.32245   3.18213588e+03
    24.26343   3.19411629e+03
    24.20470   3.20610227e+03
    24.14626   3.21809156e+03
    24.08809   3.23008358e+03
    24.03021   3.24208505e+03
    23.97260   3.25408519e+03
    23.91527   3.26598923e+03
    23.85821   3.27791267e+03
    23.80143   3.29010045e+03
    23.74491   3.30213169e+03
    23.68866   3.31416554e+03
    23.63268   3.32604035e+03
    23.57696   3.33821549e+03
    23.52151   3.35016693e+03
    23.46631   3.36229179e+03
    23.41137   3.37433124e+03
    23.35669   3.38637246e+03
    23.30226   3.39841723e+03
    23.24809   3.41046398e+03
    23.19417   3.42251318e+03
    23.14050   3.43456568e+03
    23.08707   3.44654740e+03
    23.03389   3.45860488e+03
    22.98096   3.47061757e+03
    22.92827   3.48255496e+03
    22.87582   3.49478749e+03
    22.82361   3.50685102e+03
    22.77163   3.51891534e+03
    22.71990   3.53098004e+03
    22.66839   3.54304566e+03
    22.61712   3.55510756e+03
    22.56609   3.56718038e+03
    22.51528   3.57910504e+03
    22.46470   3.59131461e+03
    22.41435   3.60335004e+03
    22.36422   3.61536584e+03
    22.31431   3.62752189e+03
    22.26463   3.63958920e+03
    22.21517   3.65164879e+03
    22.16593   3.66372891e+03
    22.11690   3.67578167e+03
    22.06810   3.68783186e+03
    22.01950   3.69993392e+03
    21.97112   3.71198757e+03
    21.92296   3.72407039e+03
    21.87500   3.73613542e+03
    21.82725   3.74815310e+03
    21.77971   3.76027049e+03
    21.73238   3.77233577e+03
    21.68525   3.78427635e+03
    21.63833   3.79646514e+03
    21.59161   3.80851943e+03
    21.54509   3.82059269e+03
    21.49877   3.83265548e+03
    21.45265   3.84471567e+03
    21.40673   3.85677413e+03
    21.36100   3.86873165e+03
    21.31547   3.88083624e+03
    21.27013   3.89292398e+03
    21.22498   3.90498630e+03
    21.18003   3.91703433e+03
    21.13527   3.92907859e+03
    21.09069   3.94113202e+03
    21.04630   3.95317942e+03
    21.00210   3.96511777e+03
    20.95808   3.97725976e+03
    20.91425   3.98929479e+03
    20.87060   4.00132803e+03
    20.82713   4.01335782e+03
    20.78385   4.02527163e+03
    20.74074   4.03732506e+03
    20.69781   4.04934564e+03
    20.65506   4.06136035e+03
    20.61249   4.07337795e+03
    20.57009   4.08530169e+03
    20.52786   4.09739733e+03
    20.48581   4.10939556e+03
    20.44393   4.12139457e+03
    20.40222   4.13340454e+03
    20.36067   4.14535158e+03
    20.31930   4.15737199e+03
    20.27810   4.16938505e+03
    20.23706   4.18134043e+03
    20.19619   4.19335334e+03
    20.15549   4.20533691e+03
    20.11494   4.21731886e+03
    20.07456   4.22929610e+03
    20.03434   4.24126954e+03
    19.99429   4.25324095e+03
    19.95439   4.26513815e+03
    19.91465   4.27714541e+03
    19.87507   4.28913416e+03
    19.83565   4.30107902e+03
    19.79638   4.31305693e+03
    19.75727   4.32501214e+03
    19.71831   4.33696047e+03
    19.67951   4.34889524e+03
    19.64085   4.36085978e+03
    19.60235   4.37273848e+03
    19.56400   4.38474429e+03
    19.52580   4.39668215e+03
    19.48775   4.40861265e+03
    19.44985   4.42049250e+03
    19.41209   4.43242953e+03
    19.37448   4.44440415e+03
    19.33702   4.45630648e+03
    19.29970   4.46823442e+03
    19.26252   4.48013820e+03
    19.22549   4.49207635e+03
    19.18860   4.50398962e+03
    19.15185   4.51589806e+03
    19.11524   4.52779973e+03
    19.07877   4.53970614e+03
    19.04244   4.55160623e+03
    19.00624   4.56343820e+03
    18.97019   4.57539870e+03
    18.93427   4.58728884e+03
    18.89849   4.59918258e+03
    18.86284   4.61107176e+03
    18.82733   4.62295845e+03
    18.79195   4.63484301e+03
    18.75670   4.64672123e+03
    18.72158   4.65857167e+03
    18.68660   4.67055453e+03
    18.65175   4.68243410e+03
    18.61702   4.69429810e+03
    18.58243   4.70618858e+03
    18.54796   4.71803827e+03
    18.51362   4.72995198e+03
    18.47941   4.74183015e+03
    18.44532   4.75370747e+03
    18.41136   4.76558285e+03
    18.37753   4.77744848e+03
    18.34382   4.78933452e+03
    18.31023   4.80120874e+03
    18.27676   4.81308612e+03
    18.24342   4.82495538e+03
    18.21020   4.83683844e+03
    18.17710   4.84867922e+03
    18.14412   4.86056315e+03
    18.11125   4.87247208e+03
    18.07851   4.88434979e+03
    18.04589   4.89622614e+03
    18.01338   4.90811374e+03
    17.98099   4.92000040e+03
    17.94872   4.93186063e+03
    17.91656   4.94377119e+03
    17.88452   4.95566520e+03
    17.85259   4.96755663e+03
    17.82077   4.97944301e+03
    17.78907   4.99134961e+03
    17.75748   5.00325204e+03
    17.72601   5.01513207e+03
    17.69464   5.02705943e+03
    17.66339   5.03897307e+03
    17.63224   5.05088442e+03
    17.60121   5.06280308e+03
    17.57028   5.07472199e+03
    17.53946   5.08664962e+03
    17.50875   5.09856480e+03
    17.47815   5.11051171e+03
    17.44766   5.12244715e+03
    17.41727   5.13437258e+03
    17.38698   5.14631815e+03
    17.35681   5.15827482e+03
    17.32673   5.17023938e+03
    17.29676   5.18220546e+03
    17.26690   5.19417369e+03
    17.23713   5.20612837e+03
    17.20747   5.21811593e+03
    17.17791   5.23010803e+03
    17.14846   5.24209575e+03
    17.11910   5.25407981e+03
    17.08984   5.26607706e+03
    17.06069   5.27810358e+03
    17.03163   5.29011839e+03
    17.00267   5.30213890e+03
    16.97381   5.31415277e+03
    16.94505   5.32620034e+03
    16.91638   5.33824308e+03
    16.88782   5.35028032e+03
    16.85934   5.36234798e+03
    16.83097   5.37441010e+03
    16.80269   5.38648096e+03
    16.77450   5.39855998e+03
    16.74641   5.41064602e+03
    16.71841   5.42241192e+03
    16.69051   5.43452452e+03
    16.66270   5.44660587e+03
    16.63498   5.45875009e+03
    16.60735   5.47087220e+03
    16.57982   5.48301192e+03
    16.55238   5.49515446e+03
    16.52502   5.50730892e+03
    16.49776   5.51946629e+03
    16.47059   5.53163301e+03
    16.44350   5.54381433e+03
    16.41651   5.55600224e+03
    16.38960   5.56818842e+03
    16.36279   5.58040136e+03
    16.33606   5.59260718e+03
    16.30941   5.60483444e+03
    16.28286   5.61706081e+03
    16.25639   5.62930583e+03
    16.23000   5.64154765e+03
    16.20370   5.65381367e+03
    16.17749   5.66608104e+03
    16.15136   5.67835798e+03
    16.12532   5.69063406e+03
    16.09936   5.70293435e+03
    16.07348   5.71524440e+03
    16.04768   5.72755719e+03
    16.02197   5.73987875e+03
    15.99634   5.75220283e+03
    15.97080   5.76455006e+03
    15.94533   5.77690627e+03
    15.91995   5.78926573e+03
    15.89464   5.80163426e+03
    15.86942   5.81401117e+03
    15.84427   5.82639720e+03
    15.81921   5.83879283e+03
    15.79422   5.85118969e+03
    15.76932   5.86360347e+03
    15.74449   5.87601806e+03
    15.71974   5.88845442e+03
    15.69507   5.90089713e+03
    15.67047   5.91334321e+03
    15.64595   5.92579789e+03
    15.62151   5.93824954e+03
    15.59715   5.95073295e+03
    15.57286   5.96320644e+03
    15.54865   5.97569563e+03
    15.52451   5.98819438e+03
    15.50044   6.00069998e+03
    15.47645   6.01321087e+03
    15.45254   6.02572820e+03
    15.42870   6.03825417e+03
    15.40493   6.05079221e+03
    15.38123   6.06333459e+03
    15.35761   6.07588074e+03
    15.33406   6.08843935e+03
    15.31059   6.10100588e+03
    15.28718   6.11357775e+03
    15.26385   6.12615594e+03
    15.24058   6.13874149e+03
    15.21739   6.15133426e+03
    15.19427   6.16393331e+03
    15.17122   6.17653007e+03
    15.14824   6.18915144e+03
    15.12532   6.20177064e+03
    15.10248   6.21439583e+03
    15.07971   6.22702716e+03
    15.05700   6.23966305e+03
    15.03436   6.25230773e+03
    15.01179   6.26495640e+03
    14.98929   6.27760806e+03
    14.96686   6.29026375e+03
    14.94449   6.30293102e+03
    14.92219   6.31559644e+03
    14.89996   6.32826985e+03
    14.87779   6.34095611e+03
    14.85569   6.35364080e+03
    14.83365   6.36632896e+03
    14.81168   6.37902202e+03
    14.78977   6.39171642e+03
    14.76793   6.40441780e+03
    14.74616   6.41712109e+03
    14.72444   6.42982677e+03
    14.70279   6.44253723e+03
    14.68121   6.45524830e+03
    14.65969   6.46796452e+03
    14.63823   6.48068246e+03
    14.61683   6.49340397e+03
    14.59550   6.50612611e+03
    14.57422   6.51885263e+03
    14.55301   6.53157931e+03
    14.53187   6.54461837e+03
    14.51078   6.55734555e+03
    14.48975   6.57008506e+03
    14.46879   6.58282268e+03
    14.44788   6.59556044e+03
    14.42704   6.60829229e+03
    14.40626   6.62103276e+03
    14.38553   6.63377456e+03
    14.36487   6.64651325e+03
    14.34426   6.65924823e+03
    14.32372   6.67198666e+03
    14.30323   6.68472891e+03
    14.28280   6.69746652e+03
    14.26243   6.71020356e+03
    14.24212   6.72293771e+03
    14.22186   6.73567411e+03
    14.20166   6.74839660e+03
    14.18152   6.76113576e+03
    14.16144   6.77386889e+03
    14.14141   6.78659799e+03
    14.12144   6.79932408e+03
    14.10153   6.81204934e+03
    14.08167   6.82477074e+03
    14.06187   6.83749045e+03
    14.04213   6.85020713e+03
    14.02244   6.86291958e+03
    14.00280   6.87562836e+03
    13.98322   6.88833753e+03
    13.96369   6.90104102e+03
    13.94422   6.91374168e+03
    13.92481   6.92643727e+03
    13.90544   6.93912722e+03
    13.88613   6.95181616e+03
    13.86688   6.96449865e+03
    13.84768   6.97717773e+03
    13.82853   6.98985146e+03
    13.80943   7.00252074e+03
    13.79039   7.01518466e+03
    13.77139   7.02784278e+03
    13.75246   7.04049706e+03
    13.73357   7.05314482e+03
    13.71473   7.06578788e+03
    13.69595   7.07842309e+03
    13.67722   7.09105768e+03
    13.65854   7.10368347e+03
    13.63991   7.11630419e+03
    13.62133   7.12891856e+03
    13.60280   7.14152457e+03
    13.58432   7.15412878e+03
    13.56589   7.16672458e+03
    13.54751   7.17931313e+03
    13.52918   7.19189674e+03
    13.51091   7.20447057e+03
    13.49268   7.21704215e+03
    13.47449   7.22960030e+03
    13.45636   7.24215968e+03
    13.43828   7.25470722e+03
    13.42025   7.26724416e+03
    13.40226   7.27978379e+03
    13.38432   7.29230990e+03
    13.36643   7.30482795e+03
    13.34859   7.31733856e+03
    13.33079   7.32984066e+03
    13.31305   7.34233385e+03
    13.29535   7.35481564e+03
    13.27769   7.36729845e+03
    13.26009   7.37976679e+03
    13.24253   7.39222712e+03
    13.22501   7.40467682e+03
    13.20755   7.41712092e+03
    13.19013   7.42955403e+03
    13.17275   7.44197739e+03
    13.15542   7.45439132e+03
    13.13814   7.46679418e+03
    13.12090   7.47919079e+03
    13.10371   7.49157620e+03
    13.08656   7.50395178e+03
    13.06945   7.51631755e+03
    13.05240   7.52867382e+03
    13.03538   7.54101588e+03
    13.01841   7.55335719e+03
    13.00149   7.56568480e+03
    12.98460   7.57800161e+03
    12.96777   7.59031016e+03
    12.95097   7.60260862e+03
    12.93422   7.61489748e+03
    12.91751   7.62717634e+03
    12.90085   7.63944538e+03
    12.88423   7.65170563e+03
    12.86765   7.66395499e+03
    12.85111   7.67619609e+03
    12.83462   7.68842677e+03
    12.81817   7.70064819e+03
    12.80176   7.71286032e+03
    12.78539   7.72506225e+03
    12.76906   7.73725460e+03
    12.75278   7.74943572e+03
    12.73654   7.76160919e+03
    12.72033   7.77377250e+03
    12.70417   7.78592510e+03
    12.68806   7.79806737e+03
    12.67198   7.81020095e+03
    12.65594   7.82232343e+03
    12.63994   7.83443569e+03
    12.62399   7.84653767e+03
    12.60807   7.85862966e+03
    12.59219   7.87070807e+03
    12.57636   7.88278213e+03
    12.56056   7.89484148e+03
    12.54480   7.90689188e+03
    12.52909   7.91893118e+03
    12.51341   7.93095530e+03
    12.49777   7.94297813e+03
    12.48217   7.95498519e+03
    12.46661   7.96698141e+03
    12.45109   7.97896311e+03
    12.43560   7.99094114e+03
    12.42016   8.00290475e+03
    12.40475   8.01485576e+03
    12.38938   8.02679601e+03
    12.37405   8.03872543e+03
    12.35876   8.05064902e+03
    12.34350   8.06255731e+03
    12.32828   8.07445477e+03
    12.31310   8.08634076e+03
    12.29796   8.09821605e+03
    12.28286   8.11007797e+03
    12.26779   8.12193139e+03
    12.25276   8.13377287e+03
    12.23776   8.14560363e+03
    12.22280   8.15742298e+03
    12.20788   8.16923051e+03
    12.19300   8.18102673e+03
    12.17815   8.19281157e+03
    12.16334   8.20458490e+03
    12.14856   8.21634659e+03
    12.13382   8.22809679e+03
    12.11911   8.23910177e+03
    12.10444   8.25082786e+03
    12.08981   8.26254130e+03
    12.07521   8.27424194e+03
    12.06065   8.28593436e+03
    12.04612   8.29761188e+03
    12.03163   8.30927689e+03
    12.01717   8.32092921e+03
    12.00274   8.33256933e+03
    11.98835   8.34419636e+03
    11.97400   8.35580961e+03
    11.95968   8.36741215e+03
    11.94539   8.37900024e+03
    11.93114   8.39057526e+03
    11.91692   8.40213684e+03
    11.90274   8.41368408e+03
    11.88859   8.42521941e+03
    11.87447   8.43674062e+03
    11.86039   8.44824788e+03
    11.84634   8.45974144e+03
    11.83232   8.47122101e+03
    11.81834   8.48268588e+03
    11.80438   8.49413743e+03
    11.79047   8.50557511e+03
    11.77658   8.51699847e+03
    11.76273   8.52840762e+03
    11.74891   8.53980028e+03
    11.73512   8.55118108e+03
    11.72137   8.56254350e+03
    11.70764   8.57389722e+03
    11.69395   8.58523505e+03
    11.68029   8.59655636e+03
    11.66667   8.60786283e+03
    11.65307   8.61915203e+03
    11.63951   8.63043073e+03
    11.62598   8.64169082e+03
    11.61248   8.65293776e+03
    11.59901   8.66416885e+03
    11.58557   8.67538410e+03
    11.57216   8.68658365e+03
    11.55878   8.69776718e+03
    11.54544   8.70893443e+03
    11.53213   8.72008789e+03
    11.51884   8.73122218e+03
    11.50559   8.74234420e+03
    11.49237   8.75344789e+03
    11.47917   8.76453500e+03
    11.46601   8.77560515e+03
    11.45288   8.78665921e+03
    11.43978   8.79769702e+03
    11.42671   8.80871723e+03
    11.41366   8.81972056e+03
    11.40065   8.83070667e+03
    11.38767   8.84167509e+03
    11.37472   8.85262687e+03
    11.36179   8.86356073e+03
    11.34890   8.87447693e+03
    11.33603   8.88537530e+03
    11.32320   8.89625453e+03
    11.31039   8.90711798e+03
    11.29761   8.91796223e+03
    11.28486   8.92878800e+03
    11.27214   8.93959489e+03
    11.25945   8.95038237e+03
    11.24679   8.96115352e+03
    11.23415   8.97190447e+03
    11.22155   8.98263646e+03
    11.20897   8.99334800e+03
    11.19642   9.00404247e+03
    11.18390   9.01471612e+03
    11.17140   9.02537039e+03
    11.15894   9.03600470e+03
    11.14650   9.04661927e+03
    11.13409   9.05721351e+03
    11.12170   9.06778779e+03
    11.10935   9.07834151e+03
    11.09702   9.08887501e+03
    11.08472   9.09938772e+03
    11.07245   9.10987607e+03
    11.06020   9.12035235e+03
    11.04798   9.13080367e+03
    11.03579   9.14123308e+03
    11.02362   9.15164542e+03
    11.01148   9.16203478e+03
    10.99937   9.17240633e+03
    10.98729   9.18275615e+03
    10.97523   9.19308451e+03
    10.96319   9.20339574e+03
    10.95119   9.21368538e+03
    10.93921   9.22395163e+03
    10.92726   9.23420334e+03
    10.91533   9.24443165e+03
    10.90343   9.25464081e+03
    10.89155   9.26482878e+03
    10.87970   9.27499729e+03
    10.86788   9.28514613e+03
    10.85608   9.29527297e+03
    10.84431   9.30538264e+03
    10.83256   9.31547091e+03
    10.82084   9.32553980e+03
    10.80914   9.33558838e+03
    10.79747   9.34561803e+03
    10.78582   9.35562571e+03
    10.77420   9.36561653e+03
    10.76261   9.37558526e+03
    10.75104   9.38553672e+03
    10.73949   9.39546618e+03
    10.72797   9.40537903e+03
    10.71647   9.41527067e+03
    10.70500   9.42514577e+03
    10.69355   9.43500014e+03
    10.68213   9.44483459e+03
    10.67073   9.45464996e+03
    10.65936   9.46444652e+03
    10.64801   9.47422392e+03
    10.63668   9.48398240e+03
    10.62538   9.49372187e+03
    10.61410   9.50344293e+03
    10.60285   9.51314529e+03
    10.59162   9.52282929e+03
    10.58041   9.53249532e+03
    10.56923   9.54214390e+03
    10.55807   9.55177489e+03
    10.54693   9.56138704e+03
    10.53582   9.57098433e+03
    10.52473   9.58056369e+03
    10.51367   9.59012643e+03
    10.50263   9.59967249e+03
    10.49161   9.60920238e+03
    10.48061   9.61933191e+03
    10.46964   9.62883256e+03
    10.45869   9.63831639e+03
    10.44776   9.64778623e+03
    10.43686   9.65723934e+03
    10.42598   9.66667740e+03
    10.41512   9.67610258e+03
    10.40428   9.68551098e+03
    10.39347   9.69490738e+03
    10.38268   9.70428909e+03
    10.37191   9.71365734e+03
    10.36116   9.72301295e+03
    10.35044   9.73235680e+03
    10.33973   9.74168680e+03
    10.32905   9.75100973e+03
    10.31840   9.76031922e+03
    10.30776   9.76961640e+03
    10.29715   9.77890342e+03
    10.28655   9.78817973e+03
    10.27598   9.79744675e+03
    10.26543   9.80670482e+03
    10.25491   9.81595361e+03
    10.24440   9.82519374e+03
    10.23392   9.83442603e+03
    10.22346   9.84365052e+03
    10.21301   9.85286780e+03
    10.20259   9.86207820e+03
    10.19220   9.87128214e+03
    10.18182   9.88047997e+03
    10.17146   9.88967188e+03
    10.16113   9.89885830e+03
    10.15081   9.90803965e+03
    10.14052   9.91721601e+03
    10.13025   9.92638776e+03
    10.11999   9.93555524e+03
    10.10976   9.94471853e+03
    10.09955   9.95387859e+03
    10.08936   9.96303525e+03
    10.07919   9.97218836e+03
    10.06904   9.98133905e+03
    10.05892   9.99048813e+03
    10.04881   9.99963476e+03
    10.03872   1.00087796e+04
    10.02865   1.00179230e+04
    10.01861   1.00270654e+04
    10.00858   1.00362069e+04
     9.99857   1.00453482e+04
     9.98858   1.00544894e+04
     9.97862   1.00636312e+04
     9.96867   1.00727738e+04
     9.95874   1.00819180e+04
     9.94883   1.00910643e+04
     9.93895   1.01002132e+04
     9.92908   1.01093643e+04
     9.91923   1.01185207e+04
     9.90940   1.01276801e+04
     9.89959   1.01368444e+04
     9.88980   1.01460124e+04
     9.88003   1.01551899e+04
     9.87028   1.01643715e+04
     9.86054   1.01735604e+04
     9.85083   1.01827573e+04
     9.84114   1.01919614e+04
     9.83146   1.02011740e+04
     9.82180   1.02103959e+04
     9.81217   1.02196276e+04
     9.80255   1.02288694e+04
     9.79295   1.02381221e+04
